,REL,SEC,FRAC,SOUR,SOURSTAT,STAT,READ,VOLTAGE
0,0.0,1657950355.0,0.187051,-30.00074,136,8,-5.053051e-07,-30
1,0.2221615,1657950355.0,0.409213,-30.00032,136,8,-4.743365e-07,-30
2,0.2913762,1657950355.0,0.478427,-30.00013,136,8,-4.658519e-07,-30
3,0.3605756,1657950355.0,0.547627,-30.00022,136,8,-4.639163e-07,-30
4,0.4297795,1657950355.0,0.616831,-30.00023,136,8,-4.601258e-07,-30
5,0.4989903,1657950355.0,0.686041,-30.00024,136,8,-4.57594e-07,-30
6,0.5681959,1657950355.0,0.755247,-30.00023,136,8,-4.55566e-07,-30
7,0.6374093,1657950355.0,0.82446,-30.00022,136,8,-4.530977e-07,-30
8,0.7066345,1657950355.0,0.893685,-30.00024,136,8,-4.52647e-07,-30
9,0.7758374,1657950355.0,0.962888,-30.00008,136,8,-4.506275e-07,-30
10,0.8450553,1657950356.0,0.0321063,-30.00018,136,8,-4.504846e-07,-30
11,0.9142661,1657950356.0,0.101317,-30.00022,136,8,-4.502815e-07,-30
12,0.9834692,1657950356.0,0.17052,-30.00017,136,8,-4.483672e-07,-30
13,1.052695,1657950356.0,0.239746,-30.00019,136,8,-4.468667e-07,-30
14,1.121912,1657950356.0,0.308963,-30.00012,136,8,-4.465913e-07,-30
15,1.191112,1657950356.0,0.378163,-30.00021,136,8,-4.464576e-07,-30
16,1.260312,1657950356.0,0.447363,-30.00012,136,8,-4.445707e-07,-30
17,1.329516,1657950356.0,0.516567,-30.00018,136,8,-4.452423e-07,-30
18,1.398732,1657950356.0,0.585783,-30.0002,136,8,-4.44359e-07,-30
19,1.467949,1657950356.0,0.655,-30.0003,136,8,-4.428135e-07,-30
20,1.537157,1657950356.0,0.724208,-30.00034,136,8,-4.416663e-07,-30
21,1.606378,1657950356.0,0.793429,-30.00025,136,8,-4.426533e-07,-30
22,1.675596,1657950356.0,0.862647,-30.00019,136,8,-4.417136e-07,-30
23,1.74481,1657950356.0,0.931861,-30.00019,136,8,-4.41628e-07,-30
24,1.814029,1657950357.0,0.00108006,-30.00008,136,8,-4.402622e-07,-30
25,1.88324,1657950357.0,0.070291,-30.00022,136,8,-4.417287e-07,-30
26,1.952453,1657950357.0,0.139504,-30.00022,136,8,-4.420642e-07,-30
27,2.021671,1657950357.0,0.208722,-30.00018,136,8,-4.404677e-07,-30
28,2.090877,1657950357.0,0.277928,-30.0002,136,8,-4.419008e-07,-30
29,2.160093,1657950357.0,0.347144,-30.00016,136,8,-4.409283e-07,-30
30,2.229301,1657950357.0,0.416352,-30.00019,136,8,-4.394066e-07,-30
31,2.298518,1657950357.0,0.485569,-30.00031,136,8,-4.399832e-07,-30
32,2.367737,1657950357.0,0.554788,-30.00019,136,8,-4.405881e-07,-30
33,2.436954,1657950357.0,0.624005,-30.00022,136,8,-4.374872e-07,-30
34,2.506172,1657950357.0,0.693223,-30.00015,136,8,-4.396117e-07,-30
35,2.575391,1657950357.0,0.762442,-30.0002,136,8,-4.399052e-07,-30
36,2.644594,1657950357.0,0.831645,-30.00019,136,8,-4.386508e-07,-30
37,2.713799,1657950357.0,0.90085,-30.00016,136,8,-4.390479e-07,-30
38,2.783015,1657950357.0,0.970066,-30.00025,136,8,-4.390191e-07,-30
39,2.852223,1657950358.0,0.0392742,-30.00025,136,8,-4.372827e-07,-30
40,2.921425,1657950358.0,0.108476,-30.00022,136,8,-4.382188e-07,-30
41,2.990648,1657950358.0,0.177699,-30.00014,136,8,-4.37349e-07,-30
42,3.059853,1657950358.0,0.246904,-30.00023,136,8,-4.385967e-07,-30
43,3.129074,1657950358.0,0.316125,-30.0002,136,8,-4.36035e-07,-30
44,3.198286,1657950358.0,0.385337,-30.00027,136,8,-4.381498e-07,-30
45,3.267494,1657950358.0,0.454545,-30.00022,136,8,-4.353359e-07,-30
46,3.336705,1657950358.0,0.523756,-30.0002,136,8,-4.360189e-07,-30
47,3.405906,1657950358.0,0.592957,-30.00019,136,8,-4.36471e-07,-30
48,3.475119,1657950358.0,0.66217,-30.00023,136,8,-4.360666e-07,-30
49,3.544328,1657950358.0,0.731379,-30.00019,136,8,-4.355545e-07,-30
50,3.61353,1657950358.0,0.800581,-30.00028,136,8,-4.360388e-07,-30
51,3.682748,1657950358.0,0.869799,-30.00022,136,8,-4.358081e-07,-30
52,3.751953,1657950358.0,0.939004,-30.00025,136,8,-4.361002e-07,-30
53,3.821177,1657950359.0,0.00822778,-30.0002,136,8,-4.370748e-07,-30
54,3.89039,1657950359.0,0.0774415,-30.00018,136,8,-4.375811e-07,-30
55,3.959607,1657950359.0,0.146658,-30.00019,136,8,-4.358542e-07,-30
56,4.028811,1657950359.0,0.215862,-30.00022,136,8,-4.368648e-07,-30
57,4.098015,1657950359.0,0.285066,-30.00019,136,8,-4.359604e-07,-30
58,4.167233,1657950359.0,0.354284,-30.00032,136,8,-4.349312e-07,-30
59,4.236453,1657950359.0,0.423504,-30.0001,136,8,-4.335759e-07,-30
60,4.305678,1657950359.0,0.492729,-30.00018,136,8,-4.350086e-07,-30
61,4.374898,1657950359.0,0.561949,-30.00021,136,8,-4.35818e-07,-30
62,4.44411,1657950359.0,0.631161,-30.00017,136,8,-4.355752e-07,-30
63,4.51332,1657950359.0,0.700371,-30.00028,136,8,-4.337414e-07,-30
64,4.582531,1657950359.0,0.769582,-30.0002,136,8,-4.349068e-07,-30
65,4.651759,1657950359.0,0.83881,-30.00027,136,8,-4.340683e-07,-30
66,4.720968,1657950359.0,0.908019,-30.00031,136,8,-4.33823e-07,-30
67,4.790186,1657950359.0,0.977237,-30.00023,136,8,-4.341059e-07,-30
68,4.859412,1657950360.0,0.0464625,-30.00019,136,8,-4.339903e-07,-30
69,4.928617,1657950360.0,0.115668,-30.00023,136,8,-4.341877e-07,-30
70,4.99783,1657950360.0,0.184881,-30.0003,136,8,-4.318785e-07,-30
71,5.06704,1657950360.0,0.254091,-30.00032,136,8,-4.338231e-07,-30
72,5.136255,1657950360.0,0.323306,-30.00031,136,8,-4.331191e-07,-30
73,5.205467,1657950360.0,0.392518,-30.00028,136,8,-4.332367e-07,-30
74,5.274692,1657950360.0,0.461743,-30.00024,136,8,-4.350873e-07,-30
75,5.343904,1657950360.0,0.530955,-30.00019,136,8,-4.327255e-07,-30
76,5.413122,1657950360.0,0.600173,-30.00023,136,8,-4.318647e-07,-30
77,5.482336,1657950360.0,0.669387,-30.00022,136,8,-4.339643e-07,-30
78,5.551544,1657950360.0,0.738595,-30.00025,136,8,-4.327769e-07,-30
79,5.620768,1657950360.0,0.807819,-30.00017,136,8,-4.318058e-07,-30
80,5.689984,1657950360.0,0.877035,-30.00028,136,8,-4.33454e-07,-30
81,5.759197,1657950360.0,0.946248,-30.00018,136,8,-4.335687e-07,-30
82,5.828398,1657950361.0,0.0154488,-30.00012,136,8,-4.323023e-07,-30
83,5.89761,1657950361.0,0.0846608,-30.00018,136,8,-4.355161e-07,-30
84,5.966811,1657950361.0,0.153862,-30.0002,136,8,-4.32283e-07,-30
85,6.036027,1657950361.0,0.223078,-30.00014,136,8,-4.328457e-07,-30
86,6.105234,1657950361.0,0.292285,-30.00028,136,8,-4.318543e-07,-30
87,6.174448,1657950361.0,0.361499,-30.00016,136,8,-4.317435e-07,-30
88,6.243672,1657950361.0,0.430723,-30.00028,136,8,-4.329826e-07,-30
89,6.312877,1657950361.0,0.499928,-30.00023,136,8,-4.312014e-07,-30
90,6.382081,1657950361.0,0.569132,-30.00031,136,8,-4.325794e-07,-30
91,6.45129,1657950361.0,0.638341,-30.00024,136,8,-4.316779e-07,-30
92,6.520503,1657950361.0,0.707554,-30.00019,136,8,-4.318003e-07,-30
93,6.589712,1657950361.0,0.776763,-30.00024,136,8,-4.333624e-07,-30
94,6.658918,1657950361.0,0.845969,-30.00023,136,8,-4.324027e-07,-30
95,6.728132,1657950361.0,0.915183,-30.00036,136,8,-4.324116e-07,-30
96,6.797334,1657950361.0,0.984385,-30.00029,136,8,-4.319075e-07,-30
97,6.866539,1657950362.0,0.0535904,-30.00026,136,8,-4.310271e-07,-30
98,6.935754,1657950362.0,0.122805,-30.00028,136,8,-4.315597e-07,-30
99,7.004958,1657950362.0,0.192009,-30.00032,136,8,-4.302787e-07,-30
100,7.07416,1657950362.0,0.261211,-30.0003,136,8,-4.319286e-07,-30
101,7.143361,1657950362.0,0.330412,-30.00023,136,8,-4.306291e-07,-30
102,7.212589,1657950362.0,0.39964,-30.00025,136,8,-4.292679e-07,-30
103,7.281792,1657950362.0,0.468843,-30.00028,136,8,-4.322634e-07,-30
104,7.350996,1657950362.0,0.538047,-30.00029,136,8,-4.311415e-07,-30
105,7.420216,1657950362.0,0.607267,-30.00016,136,8,-4.290742e-07,-30
106,7.489437,1657950362.0,0.676488,-30.00026,136,8,-4.302266e-07,-30
107,7.558645,1657950362.0,0.745696,-30.0002,136,8,-4.310251e-07,-30
108,7.627852,1657950362.0,0.814903,-30.0002,136,8,-4.325603e-07,-30
109,7.697066,1657950362.0,0.884117,-30.00027,136,8,-4.313681e-07,-30
110,7.766275,1657950362.0,0.953326,-30.00033,136,8,-4.303813e-07,-30
111,7.835479,1657950363.0,0.0225296,-30.00031,136,8,-4.306513e-07,-30
112,7.904707,1657950363.0,0.0917575,-30.00035,136,8,-4.301154e-07,-30
113,7.973915,1657950363.0,0.160966,-30.00029,136,8,-4.315406e-07,-30
114,8.04313,1657950363.0,0.230181,-30.00034,136,8,-4.300126e-07,-30
115,8.11234,1657950363.0,0.299391,-30.00031,136,8,-4.310101e-07,-30
116,8.181547,1657950363.0,0.368598,-30.00028,136,8,-4.323076e-07,-30
117,8.250777,1657950363.0,0.437828,-30.00029,136,8,-4.298997e-07,-30
118,8.319998,1657950363.0,0.507049,-30.00032,136,8,-4.300566e-07,-30
119,8.389212,1657950363.0,0.576262,-30.00034,136,8,-4.297117e-07,-30
120,8.458414,1657950363.0,0.645465,-30.00024,136,8,-4.288621e-07,-30
121,8.527616,1657950363.0,0.714667,-30.00023,136,8,-4.294494e-07,-30
122,8.596827,1657950363.0,0.783878,-30.00028,136,8,-4.30894e-07,-30
123,8.666035,1657950363.0,0.853086,-30.00021,136,8,-4.322689e-07,-30
124,8.735237,1657950363.0,0.922288,-30.00026,136,8,-4.315371e-07,-30
125,8.804453,1657950363.0,0.991504,-30.00037,136,8,-4.312275e-07,-30
126,8.873668,1657950364.0,0.0607192,-30.00035,136,8,-4.304858e-07,-30
127,8.942883,1657950364.0,0.129934,-30.00026,136,8,-4.292624e-07,-30
128,9.012082,1657950364.0,0.199133,-30.00028,136,8,-4.315536e-07,-30
129,9.081293,1657950364.0,0.268344,-30.0003,136,8,-4.29123e-07,-30
130,9.1505,1657950364.0,0.337551,-30.00029,136,8,-4.304373e-07,-30
131,9.219713,1657950364.0,0.406764,-30.00035,136,8,-4.305708e-07,-30
132,9.288924,1657950364.0,0.475975,-30.0002,136,8,-4.31208e-07,-30
133,9.358136,1657950364.0,0.545187,-30.00031,136,8,-4.299916e-07,-30
134,9.427343,1657950364.0,0.614394,-30.00026,136,8,-4.290823e-07,-30
135,9.496558,1657950364.0,0.683609,-30.00029,136,8,-4.306217e-07,-30
136,9.565782,1657950364.0,0.752833,-30.00029,136,8,-4.302075e-07,-30
137,9.634986,1657950364.0,0.822037,-30.0002,136,8,-4.295904e-07,-30
138,9.704188,1657950364.0,0.891239,-30.00031,136,8,-4.295103e-07,-30
139,9.773398,1657950364.0,0.960449,-30.00031,136,8,-4.292994e-07,-30
140,9.842599,1657950365.0,0.0296498,-30.00027,136,8,-4.293115e-07,-30
141,9.911811,1657950365.0,0.0988617,-30.00029,136,8,-4.288045e-07,-30
142,9.981014,1657950365.0,0.168065,-30.00033,136,8,-4.302186e-07,-30
143,10.05024,1657950365.0,0.237287,-30.00029,136,8,-4.277721e-07,-30
144,10.11945,1657950365.0,0.306501,-30.00029,136,8,-4.297578e-07,-30
145,10.18867,1657950365.0,0.375721,-30.00033,136,8,-4.290661e-07,-30
146,10.25788,1657950365.0,0.444934,-30.00027,136,8,-4.307395e-07,-30
147,10.3271,1657950365.0,0.514147,-30.00031,136,8,-4.286145e-07,-30
148,10.39631,1657950365.0,0.583363,-30.00033,136,8,-4.297968e-07,-30
149,10.46553,1657950365.0,0.652584,-30.00023,136,8,-4.291726e-07,-30
150,10.53474,1657950365.0,0.721796,-30.00024,136,8,-4.276623e-07,-30
151,10.60395,1657950365.0,0.791006,-30.00038,136,8,-4.304802e-07,-30
152,10.67317,1657950365.0,0.860223,-30.00035,136,8,-4.290135e-07,-30
153,10.74239,1657950365.0,0.929444,-30.00031,136,8,-4.269503e-07,-30
154,10.8116,1657950365.0,0.998655,-30.00027,136,8,-4.282192e-07,-30
155,10.88083,1657950366.0,0.0678816,-30.00036,136,8,-4.282083e-07,-30
156,10.95005,1657950366.0,0.137098,-30.00028,136,8,-4.266889e-07,-30
157,11.01925,1657950366.0,0.206305,-30.00023,136,8,-4.310663e-07,-30
158,11.08847,1657950366.0,0.275516,-30.00027,136,8,-4.279834e-07,-30
159,11.15767,1657950366.0,0.344717,-30.00031,136,8,-4.286028e-07,-30
160,11.22689,1657950366.0,0.413937,-30.00023,136,8,-4.279723e-07,-30
161,11.2961,1657950366.0,0.48315,-30.0003,136,8,-4.275138e-07,-30
162,11.36531,1657950366.0,0.552366,-30.00031,136,8,-4.289334e-07,-30
163,11.43452,1657950366.0,0.621572,-30.00028,136,8,-4.277049e-07,-30
164,11.50375,1657950366.0,0.6908,-30.0003,136,8,-4.281675e-07,-30
165,11.57297,1657950366.0,0.760021,-30.00025,136,8,-4.288173e-07,-30
166,11.64218,1657950366.0,0.829227,-30.00033,136,8,-4.273875e-07,-30
167,11.7114,1657950366.0,0.898448,-30.00037,136,8,-4.310592e-07,-30
168,11.78061,1657950366.0,0.967663,-30.00044,136,8,-4.292055e-07,-30
169,11.84983,1657950367.0,0.0368811,-30.00026,136,8,-4.290061e-07,-30
170,11.91905,1657950367.0,0.106102,-30.00031,136,8,-4.289371e-07,-30
171,11.98826,1657950367.0,0.175308,-30.00032,136,8,-4.287451e-07,-30
172,12.05746,1657950367.0,0.244513,-30.00022,136,8,-4.300233e-07,-30
173,12.12666,1657950367.0,0.313716,-30.00033,136,8,-4.276606e-07,-30
174,12.19587,1657950367.0,0.382924,-30.00028,136,8,-4.259367e-07,-30
175,12.26508,1657950367.0,0.452132,-30.00032,136,8,-4.264473e-07,-30
176,12.33429,1657950367.0,0.52134,-30.00033,136,8,-4.279029e-07,-30
177,12.40349,1657950367.0,0.590541,-30.00031,136,8,-4.272272e-07,-30
178,12.47269,1657950367.0,0.659743,-30.00035,136,8,-4.276591e-07,-30
179,12.5419,1657950367.0,0.728954,-30.00029,136,8,-4.313487e-07,-30
180,12.61111,1657950367.0,0.798162,-30.00035,136,8,-4.287274e-07,-30
181,12.68033,1657950367.0,0.867381,-30.00033,136,8,-4.268696e-07,-30
182,12.74955,1657950367.0,0.9366,-30.00022,136,8,-4.28441e-07,-30
183,12.81877,1657950368.0,0.00581664,-30.00029,136,8,-4.297308e-07,-30
184,12.88798,1657950368.0,0.0750261,-30.00023,136,8,-4.281763e-07,-30
185,12.9572,1657950368.0,0.144247,-30.00026,136,8,-4.283845e-07,-30
186,13.02641,1657950368.0,0.213462,-30.00031,136,8,-4.296798e-07,-30
187,13.09563,1657950368.0,0.282676,-30.00023,136,8,-4.279269e-07,-30
188,13.16485,1657950368.0,0.351906,-30.00027,136,8,-4.261041e-07,-30
189,13.23407,1657950368.0,0.421121,-30.00038,136,8,-4.260395e-07,-30
190,13.30328,1657950368.0,0.490328,-30.00029,136,8,-4.261499e-07,-30
191,13.3725,1657950368.0,0.55955,-30.00031,136,8,-4.277481e-07,-30
192,13.44172,1657950368.0,0.628766,-30.00029,136,8,-4.281645e-07,-30
193,13.51093,1657950368.0,0.697983,-30.00033,136,8,-4.277526e-07,-30
194,13.58015,1657950368.0,0.767197,-30.00022,136,8,-4.271798e-07,-30
195,13.64936,1657950368.0,0.836414,-30.00028,136,8,-4.262224e-07,-30
196,13.71858,1657950368.0,0.90563,-30.00025,136,8,-4.296016e-07,-30
197,13.78781,1657950368.0,0.974861,-30.00036,136,8,-4.288978e-07,-30
198,13.85702,1657950369.0,0.0440733,-30.0003,136,8,-4.284764e-07,-30
199,13.92624,1657950369.0,0.11329,-30.00034,136,8,-4.268094e-07,-30
200,13.99545,1657950369.0,0.182499,-30.00033,136,8,-4.273921e-07,-30
201,14.06466,1657950369.0,0.251711,-30.00032,136,8,-4.252704e-07,-30
202,14.13388,1657950369.0,0.320926,-30.00032,136,8,-4.289498e-07,-30
203,14.20309,1657950369.0,0.390144,-30.00023,136,8,-4.279891e-07,-30
204,14.2723,1657950369.0,0.459347,-30.00028,136,8,-4.264989e-07,-30
205,14.34151,1657950369.0,0.528565,-30.00028,136,8,-4.273406e-07,-30
206,14.41073,1657950369.0,0.597778,-30.00028,136,8,-4.278073e-07,-30
207,14.47994,1657950369.0,0.666989,-30.00026,136,8,-4.267766e-07,-30
208,14.54916,1657950369.0,0.736209,-30.00028,136,8,-4.265762e-07,-30
209,14.61838,1657950369.0,0.80543,-30.00033,136,8,-4.271269e-07,-30
210,14.6876,1657950369.0,0.874655,-30.00033,136,8,-4.270106e-07,-30
211,14.75683,1657950369.0,0.943876,-30.0003,136,8,-4.269836e-07,-30
212,14.82604,1657950370.0,0.0130946,-30.00022,136,8,-4.265941e-07,-30
213,14.89527,1657950370.0,0.0823165,-30.00029,136,8,-4.267745e-07,-30
214,14.96448,1657950370.0,0.151533,-30.00041,136,8,-4.248222e-07,-30
215,15.03369,1657950370.0,0.22074,-30.00042,136,8,-4.269766e-07,-30
216,15.1029,1657950370.0,0.289955,-30.00034,136,8,-4.263543e-07,-30
217,15.17211,1657950370.0,0.359166,-30.00033,136,8,-4.282776e-07,-30
218,15.24132,1657950370.0,0.428368,-30.00033,136,8,-4.269137e-07,-30
219,15.31052,1657950370.0,0.497574,-30.00031,136,8,-4.266412e-07,-30
220,15.37974,1657950370.0,0.566787,-30.00034,136,8,-4.261566e-07,-30
221,15.44895,1657950370.0,0.636,-30.00032,136,8,-4.263895e-07,-30
222,15.51816,1657950370.0,0.705216,-30.00038,136,8,-4.27024e-07,-30
223,15.58737,1657950370.0,0.774422,-30.0003,136,8,-4.267821e-07,-30
224,15.65659,1657950370.0,0.84364,-30.00026,136,8,-4.263198e-07,-30
225,15.72581,1657950370.0,0.912861,-30.00028,136,8,-4.257049e-07,-30
226,15.79501,1657950370.0,0.982063,-30.00025,136,8,-4.266779e-07,-30
227,15.86422,1657950371.0,0.0512715,-30.00034,136,8,-4.276478e-07,-30
228,15.93344,1657950371.0,0.120487,-30.00032,136,8,-4.27036e-07,-30
229,16.00265,1657950371.0,0.189705,-30.00037,136,8,-4.280098e-07,-30
230,16.07186,1657950371.0,0.258913,-30.00023,136,8,-4.262046e-07,-30
231,16.14107,1657950371.0,0.32812,-30.00025,136,8,-4.264841e-07,-30
232,16.21028,1657950371.0,0.397328,-30.00024,136,8,-4.25561e-07,-30
233,16.27949,1657950371.0,0.466543,-30.00031,136,8,-4.260802e-07,-30
234,16.3487,1657950371.0,0.535755,-30.00035,136,8,-4.273584e-07,-30
235,16.41792,1657950371.0,0.604967,-30.00039,136,8,-4.261152e-07,-30
236,16.48713,1657950371.0,0.674182,-30.0003,136,8,-4.255306e-07,-30
237,16.55635,1657950371.0,0.743399,-30.00024,136,8,-4.25511e-07,-30
238,16.62556,1657950371.0,0.812606,-30.00024,136,8,-4.261135e-07,-30
239,16.69476,1657950371.0,0.881815,-30.00021,136,8,-4.254577e-07,-30
240,16.76398,1657950371.0,0.951026,-30.00026,136,8,-4.247587e-07,-30
241,16.83318,1657950372.0,0.0202344,-30.00035,136,8,-4.276657e-07,-30
242,16.90239,1657950372.0,0.0894419,-30.00037,136,8,-4.262089e-07,-30
243,16.9716,1657950372.0,0.158647,-30.00032,136,8,-4.271515e-07,-30
244,17.04081,1657950372.0,0.22786,-30.00029,136,8,-4.251661e-07,-30
245,17.11002,1657950372.0,0.29707,-30.00028,136,8,-4.25619e-07,-30
246,17.17922,1657950372.0,0.366274,-30.00031,136,8,-4.250665e-07,-30
247,17.24843,1657950372.0,0.435482,-30.00028,136,8,-4.268213e-07,-30
248,17.31765,1657950372.0,0.504698,-30.00035,136,8,-4.26198e-07,-30
249,17.38687,1657950372.0,0.573922,-30.00028,136,8,-4.263369e-07,-30
250,17.45608,1657950372.0,0.643127,-30.0003,136,8,-4.251089e-07,-30
251,17.52529,1657950372.0,0.712344,-30.00035,136,8,-4.255714e-07,-30
252,17.59451,1657950372.0,0.781559,-30.00035,136,8,-4.267088e-07,-30
253,17.66372,1657950372.0,0.850774,-30.00032,136,8,-4.261209e-07,-30
254,17.73293,1657950372.0,0.919979,-30.00033,136,8,-4.244198e-07,-30
255,17.80215,1657950372.0,0.989197,-30.00025,136,8,-4.218363e-07,-30
256,17.87135,1657950373.0,0.058399,-30.00035,136,8,-4.257341e-07,-30
257,17.94056,1657950373.0,0.127609,-30.00029,136,8,-4.265085e-07,-30
258,18.00978,1657950373.0,0.196834,-30.00027,136,8,-4.257865e-07,-30
259,18.079,1657950373.0,0.266054,-30.00024,136,8,-4.265163e-07,-30
260,18.14821,1657950373.0,0.335265,-30.0003,136,8,-4.264899e-07,-30
261,18.21742,1657950373.0,0.404468,-30.0004,136,8,-4.251455e-07,-30
262,18.28663,1657950373.0,0.473682,-30.00024,136,8,-4.24644e-07,-30
263,18.35585,1657950373.0,0.542905,-30.0003,136,8,-4.270027e-07,-30
264,18.42507,1657950373.0,0.612117,-30.00032,136,8,-4.234645e-07,-30
265,18.49428,1657950373.0,0.681334,-30.00031,136,8,-4.257479e-07,-30
266,18.56349,1657950373.0,0.750545,-30.00034,136,8,-4.261373e-07,-30
267,18.6327,1657950373.0,0.819753,-30.0003,136,8,-4.24046e-07,-30
268,18.7019,1657950373.0,0.888953,-30.00025,136,8,-4.27011e-07,-30
269,18.77111,1657950373.0,0.958158,-30.00027,136,8,-4.261678e-07,-30
270,18.84033,1657950374.0,0.0273775,-30.00016,136,8,-4.262018e-07,-30
271,18.90953,1657950374.0,0.0965803,-30.00029,136,8,-4.253216e-07,-30
272,18.97875,1657950374.0,0.165796,-30.00032,136,8,-4.265527e-07,-30
273,19.04795,1657950374.0,0.235005,-30.00038,136,8,-4.254834e-07,-30
274,19.11717,1657950374.0,0.304219,-30.0004,136,8,-4.256479e-07,-30
275,19.18638,1657950374.0,0.373428,-30.00032,136,8,-4.266846e-07,-30
276,19.25558,1657950374.0,0.442628,-30.00025,136,8,-4.250442e-07,-30
277,19.32481,1657950374.0,0.511857,-30.00028,136,8,-4.257901e-07,-30
278,19.39402,1657950374.0,0.581072,-30.00034,136,8,-4.245282e-07,-30
279,19.46324,1657950374.0,0.650288,-30.00028,136,8,-4.251176e-07,-30
280,19.53246,1657950374.0,0.71951,-30.00034,136,8,-4.230388e-07,-30
281,19.60167,1657950374.0,0.788717,-30.00033,136,8,-4.239895e-07,-30
282,19.67088,1657950374.0,0.857933,-30.00034,136,8,-4.231833e-07,-30
283,19.74009,1657950374.0,0.92714,-30.0003,136,8,-4.238125e-07,-30
284,19.8093,1657950374.0,0.996348,-30.00036,136,8,-4.247368e-07,-30
285,19.87851,1657950375.0,0.0655583,-30.00031,136,8,-4.236174e-07,-30
286,19.94772,1657950375.0,0.134767,-30.00034,136,8,-4.254035e-07,-30
287,20.01692,1657950375.0,0.203968,-30.00033,136,8,-4.244157e-07,-30
288,20.08612,1657950375.0,0.273175,-30.00033,136,8,-4.259539e-07,-30
289,20.15533,1657950375.0,0.342384,-30.00038,136,8,-4.251117e-07,-30
290,20.22454,1657950375.0,0.411595,-30.00047,136,8,-4.259777e-07,-30
